!XYDATA  NAC Nacalf NaCaAlF 11mm 14/14 open 10' 1 VacuumVessel 
!INTER  1 1 0 0 
!TEMP  123.800003 124.000000 1.000000
! d20 25-Nov-08 14:08:06 User Brunel   L.C.Hansen  Run 645226*d20_2008_11_6394
! d20 25-Nov-08 14:08:06 User Brunel   L.C.Hansen  Run 645226*d20_2008_11_6394
! Monitor/counts, Counting time/sec:  246531.000000 30.000000
   0.7743           482.420      21.816
   0.8743           720.743      26.823
   0.9743           809.919      28.164
   1.0743           724.130      26.931
   1.1743           521.505      22.653
   1.2743           549.753      23.336
   1.3743           500.795      22.154
   1.4743           314.425      17.604
   1.5743           252.491      15.629
   1.6743           235.886      15.195
   1.7743           308.001      17.409
   1.8743           282.317      16.636
   1.9743           295.714      17.045
   2.0743           331.356      18.050
   2.1743           414.589      20.230
   2.2743           579.717      23.948
   2.3743           810.468      28.407
   2.4743           980.274      31.202
   2.5743          1234.282      35.136
   2.6743          1365.140      36.842
   2.7743          1582.251      39.831
   2.8743          1777.483      42.048
   2.9743          1829.614      42.355
   3.0743          2017.116      46.264
   3.1743          2230.338      46.668
   3.2743          2276.357      47.894
   3.3743          2471.980      49.830
   3.4743          2480.061      49.942
   3.5743          2767.606      53.411
   3.6743          2899.091      55.334
   3.7743          3032.444      56.263
   3.8743          3074.988      56.188
   3.9743          3148.622      56.469
   4.0743          3196.805      56.512
   4.1743          3272.297      57.488
   4.2743          3363.438      57.913
   4.3743          3396.391      58.446
   4.4743          3643.840      60.454
   4.5743          3452.433      58.566
   4.6743          3685.440      60.613
   4.7743          3634.003      60.250
   4.8743          3734.775      60.964
   4.9743          3689.649      60.486
   5.0743          3757.793      61.242
   5.1743          3660.186      60.460
   5.2743          3581.078      59.577
   5.3743          3534.989      59.263
   5.4743          3681.533      60.606
   5.5743          3607.754      60.029
   5.6743          3649.497      60.152
   5.7743          3482.327      58.879
   5.8743          3528.616      59.433
   5.9743          3565.326      59.266
   6.0743          3567.699      59.947
   6.1743          3581.733      59.646
   6.2743          3609.888      60.140
   6.3743          3595.243      59.921
   6.4743          3521.773      59.444
   6.5743          3643.649      60.468
   6.6743          3666.933      60.538
   6.7743          3728.399      61.612
   6.8743          3785.484      62.978
   6.9743          3735.286      62.481
   7.0743          3718.957      61.582
   7.1743          3659.230      60.785
   7.2743          3607.446      60.107
   7.3743          3635.873      60.439
   7.4743          3582.277      59.696
   7.5743          3573.241      60.108
   7.6743          3463.393      58.609
   7.7743          3551.502      59.490
   7.8743          3455.199      58.496
   7.9743          3451.828      58.853
   8.0743          3525.383      58.970
   8.1743          3493.575      58.909
   8.2743          3481.477      58.890
   8.3743          3487.759      58.988
   8.4743          3419.268      58.180
   8.5743          3497.277      58.855
   8.6743          3436.086      58.602
   8.7743          3550.261      59.394
   8.8743          3480.687      58.684
   8.9743          3474.014      58.882
   9.0743          3476.375      58.989
   9.1743          3531.881      59.454
   9.2743          3454.088      58.418
   9.3743          3468.598      59.088
   9.4743          3663.197      60.534
   9.5743          3614.376      60.265
   9.6743          3509.455      59.253
   9.7743          3488.635      59.232
   9.8743          3609.899      60.392
   9.9743          3635.535      60.567
  10.0743          3668.193      61.951
  10.1743          3659.266      61.924
  10.2743          3596.341      60.548
  10.3743          3591.182      59.886
  10.4743          3561.767      59.712
  10.5743          3579.315      60.049
  10.6743          3467.029      58.612
  10.7743          3613.798      60.322
  10.8743          3527.071      59.289
  10.9743          3476.550      58.756
  11.0743          3520.088      59.163
  11.1743          3536.541      59.406
  11.2743          3452.813      58.497
  11.3743          3540.735      59.103
  11.4743          3426.156      58.577
  11.5743          3536.752      59.218
  11.6743          3357.858      57.689
  11.7743          3541.013      59.289
  11.8743          3480.339      58.862
  11.9743          3356.300      57.662
  12.0743          3425.725      58.256
  12.1743          3408.526      58.123
  12.2743          3558.710      59.452
  12.3743          3531.209      59.233
  12.4743          3477.992      58.663
  12.5743          3492.203      59.054
  12.6743          3634.970      60.208
  12.7743          3571.302      59.456
  12.8743          3627.203      60.253
  12.9743          3560.810      59.654
  13.0743          3655.315      60.520
  13.1743          3518.728      59.863
  13.2743          3553.367      60.895
  13.3743          3606.156      61.342
  13.4743          3569.579      60.182
  13.5743          3679.520      60.622
  13.6743          3623.753      60.237
  13.7743          3687.491      60.606
  13.8743          3564.597      59.642
  13.9743          3579.713      59.489
  14.0743          3535.907      59.396
  14.1743          3586.439      59.347
  14.2743          3647.758      60.074
  14.3743          3641.898      59.897
  14.4743          3525.019      58.515
  14.5743          3574.721      59.250
  14.6743          3518.797      62.390
  14.7743          3507.162      57.564
  14.8743          3582.118      59.130
  14.9743          3505.997      58.613
  15.0743          3508.448      58.968
  15.1743          3604.706      59.682
  15.2743          3418.152      58.144
  15.3743          3400.936      57.943
  15.4743          3558.350      59.513
  15.5743          3561.127      59.369
  15.6743          3463.717      58.447
  15.7743          3494.048      59.111
  15.8743          3536.894      59.387
  15.9743          3540.261      59.302
  16.0743          3500.691      59.063
  16.1743          3507.757      59.411
  16.2743          3569.155      59.305
  16.3743          3565.667      60.040
  16.4743          3574.458      61.877
  16.5743          3649.136      59.951
  16.6743          3680.348      62.129
  16.7743          3701.771      60.931
  16.8743          3648.908      60.505
  16.9743          3642.384      60.190
  17.0743          3633.158      60.294
  17.1743          3609.007      59.786
  17.2743          3582.784      59.947
  17.3743          3659.637      59.954
  17.4743          3497.866      59.346
  17.5743          3442.650      57.707
  17.6743          3553.326      59.747
  17.7743          3477.451      58.471
  17.8743          3497.987      58.808
  17.9743          3681.681      60.823
  18.0743          3561.393      59.225
  18.1743          3592.749      59.525
  18.2743          3630.051      59.946
  18.3743          3693.394      60.645
  18.4743          3922.914      62.339
  18.5743          4153.362      64.310
  18.6743          4609.958      67.684
  18.7743          5112.562      71.221
  18.8743          5633.163      74.567
  18.9743          6680.120      81.659
  19.0743          7230.487      85.100
  19.1743          7563.802      86.501
  19.2743          7470.730      86.746
  19.3743          6984.558      83.464
  19.4743          6232.833      79.336
  19.5743          5442.530      74.091
  19.6743          4587.080      69.074
  19.7743          4092.749      65.595
  19.8743          3798.952      62.178
  19.9743          3702.703      60.856
  20.0743          3691.837      61.033
  20.1743          3735.819      61.161
  20.2743          3637.626      60.418
  20.3743          3640.795      60.148
  20.4743          3582.973      59.891
  20.5743          3561.457      59.632
  20.6743          3557.868      59.347
  20.7743          3566.255      59.687
  20.8743          3610.232      59.954
  20.9743          3584.700      59.440
  21.0743          3661.698      60.452
  21.1743          3642.518      60.225
  21.2743          3791.196      61.188
  21.3743          3673.705      60.379
  21.4743          3680.782      60.585
  21.5743          3538.088      59.282
  21.6743          3590.249      59.763
  21.7743          3602.530      59.711
  21.8743          3597.424      60.015
  21.9743          3516.676      58.923
  22.0743          3480.259      58.794
  22.1743          3537.161      59.568
  22.2743          3559.636      59.584
  22.3743          3552.189      59.443
  22.4743          3425.023      58.507
  22.5743          3540.110      59.567
  22.6743          3552.255      59.755
  22.7743          3621.311      60.414
  22.8743          3585.261      61.433
  22.9743          3610.638      61.750
  23.0743          3677.063      59.895
  23.1743          3553.659      60.240
  23.2743          3570.825      59.738
  23.3743          3662.295      60.486
  23.4743          3559.273      59.545
  23.5743          3654.195      59.294
  23.6743          3618.854      62.366
  23.7743          3649.953      59.819
  23.8743          3448.583      57.042
  23.9743          3559.501      60.106
  24.0743          3530.474      59.405
  24.1743          3532.467      58.940
  24.2743          3494.904      58.748
  24.3743          3533.360      59.420
  24.4743          3521.452      58.920
  24.5743          3604.083      59.762
  24.6743          3703.719      60.514
  24.7743          3603.865      59.923
  24.8743          3661.722      60.296
  24.9743          3574.892      59.450
  25.0743          3630.584      60.317
  25.1743          3614.607      59.609
  25.2743          3622.497      60.125
  25.3743          3542.990      59.206
  25.4743          3611.924      60.007
  25.5743          3588.875      59.998
  25.6743          3631.259      60.089
  25.7743          3720.634      61.208
  25.8743          3704.799      61.014
  25.9743          3690.296      61.074
  26.0743          3761.776      62.627
  26.1743          3772.735      62.705
  26.2743          3604.000      60.259
  26.3743          3820.630      61.607
  26.4743          3967.253      62.956
  26.5743          4330.281      65.708
  26.6743          5163.760      71.464
  26.7743          6583.349      80.870
  26.8743          9126.576      95.510
  26.9743         12997.004     112.911
  27.0743         17646.119     132.260
  27.1743         21247.035     144.826
  27.2743         23336.863     151.839
  27.3743         22792.453     149.614
  27.4743         19941.951     140.562
  27.5743         15590.337     124.243
  27.6743         10808.070     102.873
  27.7743          6895.599      82.501
  27.8743          4885.854      69.319
  27.9743          4089.591      63.683
  28.0743          3680.065      59.951
  28.1743          3810.552      61.222
  28.2743          3632.539      60.011
  28.3743          3776.488      60.879
  28.4743          3689.969      60.362
  28.5743          3549.875      59.272
  28.6743          3578.969      59.559
  28.7743          3709.953      60.632
  28.8743          3526.786      59.209
  28.9743          3511.340      59.041
  29.0743          3579.556      59.651
  29.1743          3579.515      60.060
  29.2743          3702.094      62.021
  29.3743          3629.218      61.389
  29.4743          3702.559      60.927
  29.5743          3672.701      60.452
  29.6743          3626.524      59.912
  29.7743          3629.929      60.232
  29.8743          3679.096      60.281
  29.9743          3628.193      59.777
  30.0743          3512.421      59.076
  30.1743          3664.905      60.113
  30.2743          3603.291      59.667
  30.3743          3710.322      60.309
  30.4743          3720.145      60.758
  30.5743          3892.564      61.857
  30.6743          3681.025      60.240
  30.7743          3750.732      60.909
  30.8743          3548.909      59.083
  30.9743          3601.895      59.497
  31.0743          3545.281      59.286
  31.1743          3627.072      59.766
  31.2743          3600.443      59.660
  31.3743          3563.969      59.040
  31.4743          3566.499      59.549
  31.5743          3561.718      59.436
  31.6743          3604.988      59.459
  31.7743          3626.734      60.080
  31.8743          3579.866      59.409
  31.9743          3557.376      59.380
  32.0743          3609.026      59.984
  32.1743          3746.294      61.226
  32.2743          3738.010      61.115
  32.3743          3701.638      60.740
  32.4743          3704.401      61.895
  32.5743          3725.093      61.922
  32.6743          3779.564      62.060
  32.7743          3889.693      62.349
  32.8743          4177.543      64.630
  32.9743          4879.256      69.647
  33.0743          6806.639      82.055
  33.1743         10185.019     100.817
  33.2743         15734.986     125.395
  33.3743         22583.805     149.313
  33.4743         29155.488     170.215
  33.5743         32601.633     179.949
  33.6743         32376.041     179.323
  33.7743         27870.965     165.717
  33.8743         20939.162     144.525
  33.9743         13511.993     115.864
  34.0743          8183.438      90.031
  34.1743          5350.005      72.670
  34.2743          4180.198      64.364
  34.3743          3860.899      62.039
  34.4743          3695.809      60.360
  34.5743          3671.514      60.351
  34.6743          3721.331      60.956
  34.7743          3809.125      61.382
  34.8743          3782.813      61.285
  34.9743          3758.980      61.156
  35.0743          3751.856      61.341
  35.1743          3631.991      60.109
  35.2743          3751.537      61.254
  35.3743          3674.259      60.494
  35.4743          3622.474      60.308
  35.5743          3566.244      60.135
  35.6743          3538.652      60.732
  35.7743          3605.563      60.989
  35.8743          3665.368      60.720
  35.9743          3719.213      60.856
  36.0743          3705.190      60.708
  36.1743          3688.008      60.378
  36.2743          3580.924      59.748
  36.3743          3638.050      59.793
  36.4743          3667.404      60.554
  36.5743          3647.136      59.789
  36.6743          3749.741      61.022
  36.7743          3608.678      59.479
  36.8743          3706.068      60.536
  36.9743          3671.834      59.993
  37.0743          3521.360      58.853
  37.1743          3693.014      60.664
  37.2743          3701.107      60.119
  37.3743          3720.599      60.484
  37.4743          3747.848      60.742
  37.5743          3746.409      60.791
  37.6743          3747.958      61.269
  37.7743          4008.088      61.532
  37.8743          3862.646      62.545
  37.9743          3854.059      61.206
  38.0743          3905.424      62.633
  38.1743          4068.065      63.278
  38.2743          4400.846      65.934
  38.3743          5612.039      74.399
  38.4743          8841.386      93.872
  38.5743         15939.492     125.903
  38.6743         26123.867     161.425
  38.7743         38893.363     198.780
  38.8743         50265.418     227.784
  38.9743         56410.984     241.689
  39.0743         55585.398     237.127
  39.1743         46622.555     215.171
  39.2743         33369.914     182.567
  39.3743         21079.180     144.283
  39.4743         11493.536     106.932
  39.5743          6373.876      79.266
  39.6743          4509.111      67.106
  39.7743          4015.615      62.844
  39.8743          3893.522      62.155
  39.9743          4036.344      62.991
  40.0743          3919.659      62.287
  40.1743          3763.857      60.890
  40.2743          3845.997      61.641
  40.3743          3828.302      61.539
  40.4743          3855.037      61.588
  40.5743          3805.004      61.038
  40.6743          3665.546      60.310
  40.7743          3723.804      60.616
  40.8743          3651.269      59.857
  40.9743          3782.102      61.177
  41.0743          3732.402      60.651
  41.1743          3676.590      60.369
  41.2743          3728.627      60.486
  41.3743          3714.727      60.661
  41.4743          3770.992      61.198
  41.5743          3778.408      61.270
  41.6743          3835.101      61.505
  41.7743          3728.918      60.950
  41.8743          3807.720      61.153
  41.9743          3714.197      61.069
  42.0743          3689.024      59.400
  42.1743          3746.800      68.786
  42.2743          3798.412      60.460
  42.3743          3773.456      61.408
  42.4743          3833.458      61.830
  42.5743          3919.453      62.245
  42.6743          3908.380      62.353
  42.7743          4019.153      62.992
  42.8743          3997.245      63.092
  42.9743          3972.567      62.585
  43.0743          3994.575      62.854
  43.1743          3995.677      62.833
  43.2743          4421.239      66.166
  43.3743          5368.873      72.639
  43.4743          6967.062      83.053
  43.5743          9034.133      94.750
  43.6743         11079.477     104.384
  43.7743         12346.991     110.316
  43.8743         12716.873     112.451
  43.9743         11219.875     105.292
  44.0743          9374.841      96.214
  44.1743          7147.866      84.244
  44.2743          5375.439      73.096
  44.3743          4368.333      65.736
  44.4743          4137.776      63.916
  44.5743          4062.224      63.714
  44.6743          4284.535      65.270
  44.7743          4644.977      67.913
  44.8743          5293.252      72.839
  44.9743          5498.004      73.967
  45.0743          5628.265      74.910
  45.1743          5501.395      74.899
  45.2743          5331.290      75.623
  45.3743          4894.028      69.198
  45.4743          4464.548      68.387
  45.5743          4240.341      65.021
  45.6743          4011.820      63.800
  45.7743          3773.120      61.289
  45.8743          3842.222      62.109
  45.9743          3768.915      60.908
  46.0743          3789.820      61.863
  46.1743          3879.801      62.079
  46.2743          3863.378      61.840
  46.3743          3886.426      62.417
  46.4743          3800.298      61.287
  46.5743          3946.908      62.476
  46.6743          3868.394      62.175
  46.7743          3943.716      62.426
  46.8743          3954.223      62.710
  46.9743          3842.522      61.744
  47.0743          3848.539      61.650
  47.1743          3800.911      61.433
  47.2743          3942.566      62.651
  47.3743          3780.864      61.077
  47.4743          3850.330      61.750
  47.5743          4119.550      64.282
  47.6743          4695.939      68.157
  47.7743          6165.172      78.615
  47.8743          8459.481      91.734
  47.9743         11400.431     106.116
  48.0743         14815.463     122.337
  48.1743         17305.502     131.492
  48.2743         18013.229     134.532
  48.3743         16746.113     130.349
  48.4743         13922.870     120.808
  48.5743         10972.382     106.613
  48.6743          8042.903      89.934
  48.7743          5673.130      75.136
  48.8743          4355.165      65.739
  48.9743          3972.170      62.868
  49.0743          3954.997      62.511
  49.1743          3924.320      62.228
  49.2743          3805.907      61.546
  49.3743          4012.928      62.802
  49.4743          3991.192      62.692
  49.5743          4036.298      63.067
  49.6743          3847.385      61.647
  49.7743          4005.293      62.652
  49.8743          3896.210      61.970
  49.9743          3998.255      62.657
  50.0743          3937.012      62.242
  50.1743          3893.865      61.964
  50.2743          4039.997      63.048
  50.3743          4048.348      62.956
  50.4743          4041.490      63.141
  50.5743          3933.652      62.243
  50.6743          4040.042      63.157
  50.7743          3910.829      62.077
  50.8743          4013.710      62.992
  50.9743          3970.577      62.430
  51.0743          3928.675      62.518
  51.1743          3947.715      62.403
  51.2743          3989.750      62.919
  51.3743          4014.879      63.315
  51.4743          3973.786      62.667
  51.5743          4071.664      64.395
  51.6743          4129.933      65.431
  51.7743          4709.482      69.980
  51.8743          6334.514      79.706
  51.9743          9531.139      97.680
  52.0743         13560.255     116.091
  52.1743         18806.648     137.060
  52.2743         23558.695     152.609
  52.3743         26208.262     161.307
  52.4743         26498.441     162.638
  52.5743         23789.389     153.149
  52.6743         19497.279     138.733
  52.7743         14628.213     120.455
  52.8743          9969.127      99.197
  52.9743          6384.396      79.403
  53.0743          4837.383      68.986
  53.1743          4299.397      65.542
  53.2743          4087.220      63.233
  53.3743          4065.493      63.292
  53.4743          4134.390      64.063
  53.5743          4035.594      63.203
  53.6743          4073.226      63.543
  53.7743          4114.546      63.732
  53.8743          3940.704      62.355
  53.9743          4008.349      63.071
  54.0743          4212.377      64.645
  54.1743          4118.667      63.965
  54.2743          4066.303      63.567
  54.3743          4000.601      63.050
  54.4743          3981.669      63.011
  54.5743          4024.573      63.373
  54.6743          3995.305      63.187
  54.7743          4058.745      63.659
  54.8743          4125.656      65.636
  54.9743          4184.138      65.894
  55.0743          4104.193      64.372
  55.1743          4049.666      63.611
  55.2743          4149.796      64.147
  55.3743          4070.670      63.365
  55.4743          4203.538      64.693
  55.5743          4303.449      65.369
  55.6743          4746.001      68.233
  55.7743          6039.958      77.384
  55.8743          8284.063      90.226
  55.9743         11742.511     107.342
  56.0743         15270.591     122.656
  56.1743         18540.676     134.864
  56.2743         20318.881     141.778
  56.3743         21013.180     143.332
  56.4743         19740.154     139.696
  56.5743         16949.738     128.840
  56.6743         13351.318     114.668
  56.7743          9687.027      97.635
  56.8743          6753.435      81.676
  56.9743          5100.727      70.619
  57.0743          4449.855      66.305
  57.1743          4314.831      65.309
  57.2743          4204.093      64.104
  57.3743          4266.379      65.130
  57.4743          4248.608      64.843
  57.5743          4261.948      64.911
  57.6743          4255.675      64.861
  57.7743          4250.353      65.129
  57.8743          4287.476      65.239
  57.9743          4246.266      65.381
  58.0743          4227.750      66.212
  58.1743          4116.773      65.469
  58.2743          4228.423      65.022
  58.3743          4240.999      65.262
  58.4743          4204.830      64.530
  58.5743          4149.153      64.268
  58.6743          4305.906      65.151
  58.7743          4281.836      65.116
  58.8743          4390.273      65.961
  58.9743          4528.178      66.649
  59.0743          4392.576      66.048
  59.1743          4620.763      67.566
  59.2743          4640.297      67.592
  59.3743          5300.603      72.246
  59.4743          7771.086      87.598
  59.5743         12319.028     110.189
  59.6743         18866.191     136.390
  59.7743         26616.799     161.617
  59.8743         32915.734     180.640
  59.9743         38301.445     194.592
  60.0743         39843.082     198.116
  60.1743         39142.715     196.222
  60.2743         35821.629     188.454
  60.3743         29437.395     169.804
  60.4743         22077.238     148.033
  60.5743         14464.372     119.553
  60.6743          8942.689      94.374
  60.7743          5984.046      77.196
  60.8743          4859.409      69.118
  60.9743          4629.526      68.162
  61.0743          4520.530      67.246
  61.1743          4446.087      66.702
  61.2743          4414.223      68.162
  61.3743          4417.768      67.300
  61.4743          4468.064      67.130
  61.5743          4479.573      66.882
  61.6743          4355.862      65.749
  61.7743          4434.104      66.537
  61.8743          4382.589      65.668
  61.9743          4439.321      66.481
  62.0743          4381.983      65.718
  62.1743          4561.286      67.136
  62.2743          4400.071      65.975
  62.3743          4566.863      67.452
  62.4743          4665.433      66.868
  62.5743          4584.653      67.649
  62.6743          4610.628      67.469
  62.7743          4807.028      68.940
  62.8743          5192.937      71.384
  62.9743          6587.306      80.453
  63.0743         10327.578     100.888
  63.1743         16996.074     130.067
  63.2743         25615.865     157.756
  63.3743         35110.887     186.549
  63.4743         43820.207     208.516
  63.5743         49317.910     219.963
  63.6743         52877.855     227.932
  63.7743         52496.348     228.116
  63.8743         49442.801     220.777
  63.9743         42341.438     204.445
  64.0743         33000.129     180.897
  64.1743         23385.922     152.491
  64.2743         14788.303     121.588
  64.3743          9011.814      95.455
  64.4743          6149.003      79.616
  64.5743          5112.510      72.799
  64.6743          4770.491      68.986
  64.7743          4815.525      69.026
  64.8743          4675.520      67.761
  64.9743          4528.992      67.039
  65.0743          4668.457      67.609
  65.1743          4593.080      67.226
  65.2743          4775.303      68.725
  65.3743          4736.765      68.016
  65.4743          4618.492      67.005
  65.5743          4816.690      69.135
  65.6743          4725.297      67.795
  65.7743          4839.447      68.778
  65.8743          4856.932      68.804
  65.9743          4943.941      69.918
  66.0743          4982.937      69.537
  66.1743          5190.073      71.284
  66.2743          5442.379      72.903
  66.3743          6804.434      81.632
  66.4743         11666.875     106.557
  66.5743         21524.475     144.779
  66.6743         36485.793     190.120
  66.7743         56531.262     234.312
  66.8743         76832.273     273.466
  66.9743         94445.766     305.282
  67.0743        106624.367     323.641
  67.1743        113422.703     332.732
  67.2743        114985.922     337.112
  67.3743        110054.500     328.720
  67.4743         96266.242     308.403
  67.5743         77343.211     277.714
  67.6743         56476.609     237.462
  67.7743         36304.090     196.762
  67.8743         20889.701     142.463
  67.9743         10680.721      97.865
  68.0743          6479.492      97.771
  68.1743          5772.689      71.596
  68.2743          5297.301      79.259
  68.3743          5134.804      82.371
  68.4743          5260.027      73.684
  68.5743          5096.550      65.260
  68.6743          5137.130      70.411
  68.7743          5180.775      71.010
  68.8743          4990.204      70.028
  68.9743          5072.041      70.229
  69.0743          4909.271      69.735
  69.1743          4782.166      68.478
  69.2743          4884.627      69.121
  69.3743          4698.948      67.951
  69.4743          4826.281      69.138
  69.5743          4779.028      68.475
  69.6743          4725.618      68.173
  69.7743          4651.148      67.536
  69.8743          4791.542      69.153
  69.9743          5144.206      70.815
  70.0743          5444.934      73.413
  70.1743          5676.884      75.074
  70.2743          6036.833      77.427
  70.3743          6324.387      78.858
  70.4743          6482.026      80.332
  70.5743          6582.665      80.667
  70.6743          6492.159      80.712
  70.7743          6599.567      81.315
  70.8743          6479.786      82.055
  70.9743          6190.843      79.957
  71.0743          5698.622      75.427
  71.1743          5369.518      72.821
  71.2743          5007.164      70.321
  71.3743          4803.707      68.800
  71.4743          4739.138      67.980
  71.5743          4511.629      66.477
  71.6743          4558.266      67.012
  71.7743          4566.510      66.581
  71.8743          4597.806      67.073
  71.9743          4635.163      67.190
  72.0743          4649.835      67.474
  72.1743          4702.031      67.720
  72.2743          4827.870      68.441
  72.3743          4878.973      69.340
  72.4743          4683.034      67.127
  72.5743          4842.228      68.845
  72.6743          4897.540      69.193
  72.7743          5065.770      70.542
  72.8743          5210.992      70.782
  72.9743          5639.198      74.348
  73.0743          7669.498      86.502
  73.1743         12535.343     110.582
  73.2743         20653.402     141.601
  73.3743         31932.525     177.209
  73.4743         45726.094     212.203
  73.5743         59560.699     240.996
  73.6743         71762.500     266.085
  73.7743         81615.656     283.739
  73.8743         86968.695     292.156
  73.9743         89945.266     300.153
  74.0743         90856.008     305.641
  74.1743         86705.852     295.685
  74.2743         80136.273     286.840
  74.3743         67845.555     258.469
  74.4743         53555.844     230.189
  74.5743         38391.398     193.489
  74.6743         25319.529     157.617
  74.7743         15296.079     122.404
  74.8743          9196.077      94.820
  74.9743          6624.215      80.384
  75.0743          5510.840      73.263
  75.1743          5174.066      70.924
  75.2743          5111.573      70.722
  75.3743          5097.847      70.411
  75.4743          4962.422      69.748
  75.5743          4784.816      68.188
  75.6743          4891.067      68.970
  75.7743          4913.693      69.132
  75.8743          4699.555      67.600
  75.9743          4701.443      68.115
  76.0743          4697.016      67.224
  76.1743          4543.979      66.337
  76.2743          4693.200      67.266
  76.3743          4582.270      68.377
  76.4743          4708.073      66.722
  76.5743          4991.423      68.517
  76.6743          5285.982      69.862
  76.7743          6067.435      66.221
  76.8743          6234.397     146.824
  76.9743          7466.301      80.907
  77.0743          8470.078      82.581
  77.1743          9443.801      89.673
  77.2743          9341.799     153.849
  77.3743         10467.386      92.986
  77.4743         10866.516     102.034
  77.5743         11181.507     103.961
  77.6743         10992.834     103.394
  77.7743         10939.939     103.683
  77.8743         10052.750      98.789
  77.9743          9399.092      96.483
  78.0743          8084.176      89.166
  78.1743          7020.807      83.088
  78.2743          6038.377      76.650
  78.3743          5371.164      72.836
  78.4743          5069.759      70.563
  78.5743          4971.377      69.736
  78.6743          4824.945      68.781
  78.7743          4843.319      69.064
  78.8743          4791.015      68.415
  78.9743          4842.360      68.812
  79.0743          4907.346      69.449
  79.1743          4937.643      69.620
  79.2743          5062.663      70.492
  79.3743          5430.828      73.116
  79.4743          6800.483      81.561
  79.5743          9820.282      98.588
  79.6743         14684.795     119.559
  79.7743         21557.773     146.172
  79.8743         30156.021     171.983
  79.9743         39752.586     197.671
  80.0743         48999.273     220.964
  80.1743         57541.043     238.476
  80.2743         63505.230     251.270
  80.3743         68280.688     261.746
  80.4743         71583.359     272.691
  80.5743         72797.055     274.632
  80.6743         72275.773     270.060
  80.7743         69462.766     263.173
  80.8743         63809.734     251.582
  80.9743         55846.633     236.847
  81.0743         46129.398     212.594
  81.1743         35347.676     187.374
  81.2743         25344.340     158.610
  81.3743         17609.379     131.943
  81.4743         11695.428     107.347
  81.5743          8079.996      89.700
  81.6743          6273.740      78.643
  81.7743          5389.436      72.897
  81.8743          5048.322      70.684
  81.9743          5048.989      70.700
  82.0743          5102.738      70.981
  82.1743          4959.756      69.932
  82.2743          4967.356      70.291
  82.3743          5044.406      70.733
  82.4743          5217.518      71.845
  82.5743          5655.783      74.716
  82.6743          7070.194      83.902
  82.7743          9610.741      97.512
  82.8743         13471.163     114.753
  82.9743         18733.174     136.797
  83.0743         24856.330     157.155
  83.1743         30761.066     174.632
  83.2743         37043.961     192.731
  83.3743         42563.770     206.145
  83.4743         46367.621     215.528
  83.5743         49638.078     224.199
  83.6743         51552.109     232.765
  83.7743         52639.598     232.705
  83.8743         53221.434     232.096
  83.9743         51402.410     226.335
  84.0743         48293.430     219.973
  84.1743         43696.414     208.114
  84.2743         38256.441     195.171
  84.3743         30887.201     174.376
  84.4743         24050.531     154.647
  84.5743         17847.416     132.575
  84.6743         12800.311     112.700
  84.7743          9185.404      94.846
  84.8743          6941.601      82.844
  84.9743          5725.193      75.150
  85.0743          5152.923      71.267
  85.1743          4924.180      69.813
  85.2743          4920.256      69.444
  85.3743          4933.407      69.574
  85.4743          4837.944      69.142
  85.5743          4747.791      68.600
  85.6743          4885.442      69.181
  85.7743          4894.501      69.406
  85.8743          5355.314      72.917
  85.9743          5657.780      74.671
  86.0743          6227.099      78.108
  86.1743          6989.005      83.630
  86.2743          7770.345      87.657
  86.3743          8290.938      90.559
  86.4743          9167.936      95.406
  86.5743          9566.965      97.673
  86.6743         10087.473     100.206
  86.7743         10324.106     101.890
  86.8743         10642.404     105.386
  86.9743         10909.923     106.132
  87.0743         10956.625     105.318
  87.1743         10570.699     102.551
  87.2743         10532.896     102.644
  87.3743          9733.714      98.461
  87.4743          9269.486      95.935
  87.5743          8450.659      91.542
  87.6743          7421.707      85.859
  87.7743          6825.475      81.773
  87.8743          6200.375      78.404
  87.9743          5404.244      73.084
  88.0743          5157.146      71.257
  88.1743          4976.808      69.985
  88.2743          4929.893      70.600
  88.3743          4776.500      67.241
  88.4743          4745.832      69.130
  88.5743          4785.830      68.657
  88.6743          4727.808      68.268
  88.7743          4874.471      69.557
  88.8743          5200.832      71.500
  88.9743          5754.722      75.201
  89.0743          6469.182      80.117
  89.1743          7350.138      85.122
  89.2743          8733.276      92.599
  89.3743         10197.854     101.709
  89.4743         11588.624     106.286
  89.5743         12852.265     113.338
  89.6743         14247.596     118.578
  89.7743         15421.040     123.865
  89.8743         15995.259     127.179
  89.9743         16809.014     129.746
  90.0743         17397.820     134.391
  90.1743         17195.230     133.930
  90.2743         17663.623     133.425
  90.3743         17413.648     131.823
  90.4743         16934.033     129.806
  90.5743         15623.879     124.660
  90.6743         14542.712     119.861
  90.7743         12977.844     113.514
  90.8743         11623.100     107.479
  90.9743         10120.570      99.891
  91.0743          8570.024      91.791
  91.1743          7507.811      86.382
  91.2743          6265.630      78.560
  91.3743          5514.699      73.582
  91.4743          5274.688      72.290
  91.5743          5115.011      71.090
  91.6743          5054.638      70.503
  91.7743          5086.144      70.661
  91.8743          5463.259      73.606
  91.9743          6201.049      78.275
  92.0743          7857.989      87.954
  92.1743         10238.020     100.868
  92.2743         13082.338     113.357
  92.3743         17177.217     130.683
  92.4743         21455.670     145.136
  92.5743         26256.988     162.102
  92.6743         30849.844     174.388
  92.7743         35232.508     186.992
  92.8743         39097.570     197.631
  92.9743         42880.223     205.950
  93.0743         45233.340     213.007
  93.1743         47291.855     217.919
  93.2743         48232.223     223.530
  93.3743         49460.469     226.909
  93.4743         49642.125     223.904
  93.5743         48462.918     220.473
  93.6743         47000.332     216.759
  93.7743         44397.766     209.704
  93.8743         40383.871     198.634
  93.9743         36250.508     189.770
  94.0743         31061.385     175.197
  94.1743         26166.213     160.707
  94.2743         21112.723     144.088
  94.3743         16568.514     127.871
  94.4743         12846.894     112.944
  94.5743         10041.722      99.098
  94.6743          8087.106      89.520
  94.7743          6828.425      81.820
  94.8743          6209.488      78.419
  94.9743          5738.507      75.137
  95.0743          5539.388      73.984
  95.1743          5370.939      72.974
  95.2743          5525.091      73.362
  95.3743          5512.392      74.141
  95.4743          5670.697      74.569
  95.5743          5785.258      75.704
  95.6743          5881.246      76.200
  95.7743          6066.938      77.666
  95.8743          6225.827      78.657
  95.9743          6460.635      80.048
  96.0743          6603.596      80.881
  96.1743          6603.336      81.355
  96.2743          6801.431      82.298
  96.3743          7031.411      84.465
  96.4743          6924.836      84.969
  96.5743          7150.793      86.361
  96.6743          7053.956      85.068
  96.7743          6997.078      83.895
  96.8743          6804.348      82.667
  96.9743          6586.771      81.250
  97.0743          6587.105      81.298
  97.1743          6525.008      80.902
  97.2743          6164.540      78.569
  97.3743          5998.769      77.593
  97.4743          5619.176      74.631
  97.5743          5462.514      73.831
  97.6743          5400.694      73.515
  97.7743          5124.753      71.273
  97.8743          4944.181      70.217
  97.9743          4813.310      69.387
  98.0743          4913.793      69.934
  98.1743          4945.668      70.125
  98.2743          5300.431      72.773
  98.3743          5666.689      75.422
  98.4743          6128.668      77.671
  98.5743          6749.597      82.583
  98.6743          7665.542      87.278
  98.7743          8391.229      91.539
  98.8743          9272.371      96.264
  98.9743         10124.710     100.790
  99.0743         11102.827     105.555
  99.1743         11700.787     108.317
  99.2743         12557.900     112.290
  99.3743         13219.018     115.118
  99.4743         14003.688     118.739
  99.5743         14174.059     120.427
  99.6743         14548.901     123.580
  99.7743         14737.004     123.867
  99.8743         14773.680     123.110
  99.9743         14630.677     121.430
 100.0743         14274.181     120.095
 100.1743         14081.158     119.594
 100.2743         13259.916     115.043
 100.3743         12857.479     113.614
 100.4743         11870.991     109.565
 100.5743         10896.600     103.853
 100.6743         10062.996     100.494
 100.7743          9235.899      96.244
 100.8743          8183.788      90.496
 100.9743          7308.774      85.321
 101.0743          6626.563      81.340
 101.1743          6149.951      78.434
 101.2743          5759.042      75.718
 101.3743          5658.521      75.094
 101.4743          6005.336      77.477
 101.5743          6256.072      79.280
 101.6743          6837.272      82.246
 101.7743          7518.067      86.974
 101.8743          8207.327      90.884
 101.9743          9215.584      95.556
 102.0743         10099.475     100.374
 102.1743         11090.689     105.587
 102.2743         11887.963     109.350
 102.3743         12654.059     112.388
 102.4743         13534.000     116.829
 102.5743         14271.459     119.683
 102.6743         14552.756     121.709
 102.7743         15243.266     124.490
 102.8743         15762.270     129.078
 102.9743         15699.563     127.914
 103.0743         16178.734     128.638
 103.1743         15813.246     125.613
 103.2743         15546.215     124.705
 103.3743         15513.700     124.645
 103.4743         15098.001     122.610
 103.5743         14467.353     119.988
 103.6743         13700.644     116.967
 103.7743         13000.610     113.375
 103.8743         12040.667     109.447
 103.9743         11030.230     104.530
 104.0743          9670.327      98.026
 104.1743          8805.993      93.317
 104.2743          8107.583      89.637
 104.3743          7318.092      85.094
 104.4743          6815.432      82.203
 104.5743          6534.518      80.331
 104.6743          6487.613      80.235
 104.7743          6894.458      82.700
 104.8743          7410.151      85.737
 104.9743          8179.554      90.334
 105.0743          8925.853      94.150
 105.1743          9966.228      99.261
 105.2743         10767.483     103.759
 105.3743         11903.293     108.780
 105.4743         12818.272     113.052
 105.5743         13813.667     117.162
 105.6743         14810.802     121.888
 105.7743         15282.714     123.606
 105.8743         16015.250     126.124
 105.9743         16564.893     129.671
 106.0743         16917.066     132.663
 106.2743         17832.455     135.417
 106.3743         17737.684     133.760
 106.4743         18104.717     135.099
 106.5743         17752.750     133.756
 106.6743         17458.664     131.983
 106.7743         16804.951     129.901
 106.8743         16581.793     128.882
 106.9743         15554.324     124.252
 107.0743         14798.859     121.461
 107.1743         13887.571     117.645
 107.2743         12679.297     112.440
 107.3743         11799.470     108.320
 107.4743         10299.325     101.315
 107.5743          9531.835      97.723
 107.6743          8466.249      91.603
 107.7743          7741.243      87.901
 107.8743          7132.041      84.245
 107.9743          6844.107      82.657
 108.0743          6456.659      80.122
 108.1743          6523.974      80.691
 108.2743          6612.569      81.229
 108.3743          6840.548      82.832
 108.4743          7216.306      84.437
 108.5743          7473.989      86.966
 108.6743          7857.909      88.537
 108.7743          8132.549      90.451
 108.8743          8598.469      92.844
 108.9743          8831.794      94.238
 109.0743          8835.917      93.957
 109.1743          9340.290      97.682
 109.2743          9660.026     102.304
 109.3743          9744.937      97.596
 109.4743         10008.060     103.034
 109.5743         10078.653     100.576
 109.6743          9892.052     100.201
 109.7743         10173.058     100.822
 109.8743         10031.819     100.273
 109.9743         10131.387     100.731
 110.0743          9909.511      99.700
 110.1743          9949.302      99.463
 110.2743          9529.167      95.966
 110.3743          9428.031     100.767
 110.4743          9193.266      94.059
 110.5743          8593.351      92.364
 110.6743          8155.608      90.579
 110.7743          7990.404      89.035
 110.8743          7665.510      87.413
 110.9743          7372.697      85.706
 111.0743          7439.108      86.170
 111.1743          7211.715      84.967
 111.2743          7545.259      86.641
 111.3743          7734.978      88.034
 111.4743          8116.787      89.805
 111.5743          8523.749      92.518
 111.6743          9323.006      96.365
 111.7743         10181.705     101.297
 111.8743         10983.236     104.683
 111.9743         11931.525     109.487
 112.0743         12794.782     113.553
 112.1743         13566.045     116.771
 112.2743         14048.083     118.289
 112.3743         14898.820     123.968
 112.4743         15835.375     129.369
 112.5743         16185.111     129.324
 112.6743         16904.619     132.509
 112.7743         17348.381     131.833
 112.8743         17663.613     133.754
 112.9743         17886.082     134.467
 113.0743         18187.850     134.714
 113.1743         18307.559     135.608
 113.2743         18449.082     136.023
 113.3743         18334.469     135.171
 113.4743         18047.631     134.095
 113.5743         17585.594     132.579
 113.6743         17155.152     130.769
 113.7743         16493.277     128.040
 113.8743         16091.196     126.397
 113.9743         15152.993     123.134
 114.0743         14357.427     119.766
 114.1743         13462.962     115.884
 114.2743         12674.597     112.129
 114.3743         11793.305     108.617
 114.4743         11189.060     105.609
 114.5743         10463.729     101.786
 114.6743          9906.251      99.667
 114.7743          9549.229      97.558
 114.8743          9363.960      96.331
 114.9743          9498.839      97.812
 115.0743          9488.347      97.302
 115.1743          9807.620      99.664
 115.2743         10534.790     101.858
 115.3743         11022.205     106.283
 115.4743         11288.965     105.996
 115.5743         12157.100     111.768
 115.6743         12603.180     114.273
 115.7743         13189.278     118.395
 115.8743         13824.254     118.385
 115.9743         14062.406     118.284
 116.0743         14828.344     122.365
 116.1743         15325.567     123.835
 116.2743         15614.253     124.683
 116.3743         15677.347     124.687
 116.4743         16364.658     128.182
 116.5743         16083.785     126.191
 116.6743         16443.164     127.944
 116.7743         16476.400     128.288
 116.8743         16389.176     127.516
 116.9743         16357.213     128.116
 117.0743         15922.269     125.236
 117.1743         15849.627     125.506
 117.2743         15355.771     123.752
 117.3743         15095.803     122.014
 117.4743         14202.178     118.204
 117.5743         13888.773     118.812
 117.6743         13485.785     115.078
 117.7743         12812.978     112.935
 117.8743         12495.553     111.585
 117.9743         12193.542     109.910
 118.0743         11857.705     109.145
 118.1743         11788.158     107.272
 118.2743         11892.573     110.201
 118.3743         12180.531     109.726
 118.4743         12675.864     112.988
 118.5743         13054.979     114.084
 118.6743         13767.153     118.966
 118.7743         14679.469     119.762
 118.8743         15250.054     127.859
 118.9743         16558.896     131.090
 119.0743         17269.180     132.566
 119.1743         18324.084     135.407
 119.2743         19112.568     138.308
 119.3743         20269.604     143.003
 119.4743         21035.230     144.566
 119.5743         21891.096     148.068
 119.6743         22297.867     149.170
 119.7743         23066.703     151.607
 119.8743         23846.215     155.124
 119.9743         24317.395     154.031
 120.0743         24855.963     157.778
 120.1743         24775.936     156.706
 120.2743         25227.236     158.427
 120.3743         24986.490     157.880
 120.4743         25085.297     157.545
 120.5743         24881.953     157.427
 120.6743         24510.619     156.315
 120.7743         24459.955     155.976
 120.8743         23564.068     153.175
 120.9743         22853.811     150.707
 121.0743         22235.033     148.787
 121.1743         21217.486     145.582
 121.2743         20790.094     143.417
 121.3743         19441.189     140.664
 121.4743         18389.039     133.475
 121.5743         17342.520     132.913
 121.6743         16139.916     126.901
 121.7743         15466.744     124.712
 121.8743         14318.495     119.968
 121.9743         13523.460     117.299
 122.0743         13113.856     116.744
 122.1743         12409.743     114.596
 122.2743         11972.664     109.841
 122.3743         11629.825     108.515
 122.4743         11367.818     106.399
 122.5743         11127.753     105.907
 122.6743         11112.153     105.386
 122.7743         11111.947     105.323
 122.8743         11254.974     106.321
 122.9743         11542.392     106.869
 123.0743         11772.485     108.132
 123.1743         12112.133     110.197
 123.2743         12381.743     111.004
 123.3743         12485.467     111.344
 123.4743         13028.882     113.531
 123.5743         13030.441     116.029
 123.6743         13195.656     110.735
 123.7743         13484.794     117.633
 123.8743         13528.899     115.945
 123.9743         13879.964     118.000
 124.0743         13729.969     116.031
 124.1743         13783.257     117.450
 124.2743         13867.932     117.264
 124.3743         13920.176     117.748
 124.4743         13660.147     116.439
 124.5743         13488.738     116.054
 124.6743         13484.362     116.223
 124.7743         13357.188     115.358
 124.8743         12993.440     114.021
 124.9743         12827.515     113.826
 125.0743         12483.205     111.702
 125.1743         12033.042     111.657
 125.2743         11559.940     109.275
 125.3743         11124.078     108.108
 125.4743         10855.073     105.176
 125.5743         10247.266     101.438
 125.6743          9861.864      99.957
 125.7743          9482.308      97.497
 125.8743          8914.974      95.012
 125.9743          8713.260      93.437
 126.0743          8096.113      90.359
 126.1743          8048.041      89.750
 126.2743          7505.695      86.392
 126.3743          7146.145      84.917
 126.4743          7109.940      84.374
 126.5743          6818.676      82.326
 126.6743          6711.122      81.983
 126.7743          6435.729      80.215
 126.8743          6433.694      80.047
 126.9743          6373.706      79.721
 127.0743          6196.729      79.031
 127.1743          6220.662      78.894
 127.2743          6362.804      79.660
 127.3743          6114.948      78.108
 127.4743          6119.537      78.410
 127.5743          6284.295      79.358
 127.6743          6175.938      78.689
 127.7743          6227.277      79.208
 127.8743          6317.073      79.791
 127.9743          6120.812      78.177
 128.0743          6150.246      79.143
 128.1743          6278.732      78.780
 128.2743          6276.372      79.923
 128.3743          6310.666      80.347
 128.4743          6118.986      79.737
 128.5743          6194.747      80.506
 128.6743          6019.366      78.606
 128.7743          5992.253      78.439
 128.8743          6163.799      78.489
 128.9743          6128.428      78.524
 129.0743          5954.651      77.197
 129.1743          6021.281      77.329
 129.2743          5864.713      76.645
 129.3743          5984.297      77.161
 129.4743          5843.756      76.002
 129.5743          5948.861      77.050
 129.6743          5830.549      76.166
 129.7743          5726.132      75.201
 129.8743          5795.076      76.291
 129.9743          5812.701      75.881
 130.0743          5681.313      75.126
 130.1743          5671.015      74.990
 130.2743          5682.358      75.113
 130.3743          5523.714      74.374
 130.4743          5418.993      73.190
 130.5743          5488.822      73.670
 130.6743          5607.154      75.347
 130.7743          5541.464      73.437
 130.8743          5413.377      73.783
 130.9743          5335.562      72.980
 131.0743          5361.395      73.007
 131.1743          5450.392      74.088
 131.2743          5447.060      73.710
 131.3743          5392.201      73.852
 131.4743          5340.192      72.846
 131.5743          5491.017      75.030
 131.6743          5404.781      75.153
 131.7743          5399.704      75.177
 131.8743          5374.435      73.914
 131.9743          5310.761      73.177
 132.0743          5515.082      74.406
 132.1743          5448.235      74.079
 132.2743          5463.910      73.796
 132.3743          5609.296      75.071
 132.4743          5382.378      73.628
 132.5743          5451.116      73.543
 132.6743          5764.570      75.751
 132.7743          5813.178      76.364
 132.8743          5885.760      76.548
 132.9743          6256.460      78.956
 133.0743          6733.844      81.980
 133.1743          7206.212      84.938
 133.2743          7726.674      87.650
 133.3743          8212.940      90.642
 133.4743          8850.370      93.761
 133.5743          9689.091      98.505
 133.6743         10628.413     102.985
 133.7743         11416.054     106.585
 133.8743         12440.625     111.621
 133.9743         13652.414     116.867
 134.0743         14681.751     120.875
 134.1743         15693.190     125.566
 134.2743         16994.416     130.580
 134.3743         18175.811     134.850
 134.4743         19303.373     139.361
 134.5743         20456.980     143.835
 134.6743         21835.344     148.057
 134.7743         22717.039     152.463
 134.8743         23811.828     157.906
 134.9743         24963.236     161.830
 135.0743         25848.230     162.510
 135.1743         27047.168     164.705
 135.2743         27822.256     166.963
 135.3743         28841.436     170.624
 135.4743         29762.938     172.233
 135.5743         30331.053     174.974
 135.6743         31045.994     176.537
 135.7743         32043.600     178.097
 135.8743         32938.281     181.971
 135.9743         33389.242     181.848
 136.0743         34017.961     185.159
 136.1743         33979.645     183.476
 136.2743         34720.422     185.905
 136.3743         35368.910     188.106
 136.4743         35830.223     188.619
 136.5743         35787.629     189.976
 136.6743         35954.117     186.166
 136.7743         36083.207     191.297
 136.8743         35806.703     188.579
 136.9743         35588.781     188.311
 137.0743         35430.812     188.018
 137.1743         35189.402     187.875
 137.2743         34610.258     184.754
 137.3743         34389.031     186.200
 137.4743         34004.094     184.353
 137.5743         33224.918     181.850
 137.6743         32747.176     181.713
 137.7743         32062.746     179.638
 137.8743         31130.832     176.561
 137.9743         30437.473     176.560
 138.0743         29418.988     175.963
 138.1743         28941.045     173.837
 138.2743         27752.703     168.285
 138.3743         26749.064     163.659
 138.4743         26089.078     161.456
 138.5743         24829.375     157.622
 138.6743         23770.014     154.088
 138.7743         22473.588     149.811
 138.8743         21223.426     145.705
 138.9743         20273.377     141.699
 139.0743         18854.600     137.075
 139.1743         17837.848     132.830
 139.2743         16719.357     129.243
 139.3743         15735.982     125.062
 139.4743         14830.633     121.225
 139.5743         13994.734     118.121
 139.6743         13150.534     114.249
 139.7743         12257.522     110.107
 139.8743         11744.620     108.201
 139.9743         10978.387     104.756
 140.0743         10304.554     100.788
 140.1743         10194.121     100.759
 140.2743          9659.527      98.133
 140.3743          9261.317      95.584
 140.4743          9056.026      95.111
 140.5743          8979.163      94.712
 140.6743          8616.875      92.676
 140.7743          8508.625      91.949
 140.8743          8369.579      91.407
 140.9743          8404.892      91.814
 141.0743          8313.505      91.269
 141.1743          8085.907      90.460
 141.2743          8155.421      92.177
 141.3743          8220.228      92.673
 141.4743          8036.674      90.557
 141.5743          8079.237      89.653
 141.6743          8021.505      89.914
 141.7743          8108.199      89.875
 141.8743          8130.909      90.066
 141.9743          8113.972      89.834
 142.0743          7973.077      88.992
 142.1743          8102.769      89.469
 142.2743          7908.248      88.389
 142.3743          8033.322      89.347
 142.4743          8146.079      89.718
 142.5743          8069.518      88.918
 142.6743          7879.777      88.750
 142.7743          8001.446      88.588
 142.8743          7967.079      89.091
 142.9743          7949.423      88.039
 143.0743          7943.110      88.962
 143.1743          8079.349      89.572
 143.2743          7734.152      87.237
 143.3743          7797.901      87.845
 143.4743          7717.711      87.341
 143.5743          7677.786      87.519
 143.6743          7721.872      87.165
 143.7743          7483.049      86.459
 143.8743          7654.546      87.130
 143.9743          7509.487      86.522
 144.0743          7587.347      87.096
 144.1743          7445.888      86.214
 144.2743          7381.638      85.949
 144.3743          7219.004      85.752
 144.4743          7326.818      87.385
 144.5743          7315.524      86.887
 144.6743          7275.523      86.157
 144.7743          7129.163      83.919
 144.8743          7304.642      85.500
 144.9743          7221.642      84.517
 145.0743          7230.773      84.915
 145.1743          7281.108      85.178
 145.2743          7197.577      84.357
 145.3743          7107.030      83.606
 145.4743          7206.473      84.531
 145.5743          6983.695      83.245
 145.6743          7001.006      83.192
 145.7743          7160.475      83.704
 145.8743          7030.147      83.568
 145.9743          7192.728      84.335
 146.0743          7170.436      83.941
 146.1743          7126.691      83.855
 146.2743          6982.100      82.968
 146.3743          7131.413      84.015
 146.4743          7249.157      84.332
 146.5743          7344.183      85.305
 146.6743          7153.428      84.019
 146.7743          7079.375      83.611
 146.8743          7269.861      84.619
 146.9743          7318.146      85.135
 147.0743          7494.908      86.555
 147.1743          7552.716      87.710
 147.2743          7383.625      82.717
 147.3743          7481.146      87.849
 147.4743          7703.343      87.302
 147.5743          7594.966      87.899
 147.6743          7583.352      88.310
 147.7743          7683.057      89.721
 147.8743          7732.364      88.819
 147.9743          7944.897      88.938
 148.0743          8126.639      90.079
 148.1743          8097.861      89.904
 148.2743          8142.700      89.905
 148.3743          8328.292      90.896
 148.4743          8608.782      92.360
 148.5743          8653.163      92.852
 148.6743          8723.401      92.567
 148.7743          8915.607      93.890
 148.8743          9445.147      96.829
 148.9743          9539.671      89.465
 149.0743          9502.982     119.273
 149.1743          9745.024      90.648
 149.2743         10083.078      99.837
 149.3743         10211.275     100.371
 149.4743         10172.081     100.321
 149.5743         10318.191     101.281
 149.6743         10715.956     102.924
 149.7743         10789.277     102.736
 149.8743         11013.325     104.898
 149.9743         11144.928     104.857
 150.0743         11250.382     105.430
 150.1743         11251.253     106.012
 150.2743         11627.506     107.487
 150.3743         11703.670     107.920
 150.4743         11622.919     107.661
 150.5743         11937.167     109.039
 150.6743         12128.711     110.034
 150.7743         12255.939     111.339
 150.8743         12326.267     113.574
 150.9743         12384.529     113.206
 151.0743         12614.772     113.527
 151.1743         12632.946     112.307
 151.2743         12866.908     113.746
 151.3743         12920.408     113.124
 151.4743         13006.741     114.129
 151.5743         13350.822     114.774
 151.6743         13387.638     115.964
 151.7743         13730.702     116.487
 151.8743         13317.622     116.414
 151.9743         13687.805     112.834
 152.0743         13518.315     117.854
 152.1743         13739.926     120.285
 152.2743         14055.511     111.056
 152.3743         13976.031     117.875
 152.4743         13752.921     118.573
 152.5743         14113.038     115.989
 152.6743         13756.068     112.382
 152.7743         13340.099     114.576
 152.8743         13040.741     111.856
 152.9743         12555.482     109.443
 153.0743         12009.295     109.311
 153.1743         11428.060     105.943
 153.2743         10931.451     100.530
 153.3743         10019.778     102.974
 153.4743          9358.736      91.336
 153.5743          8479.970      97.342
 153.6743          7960.134      85.781
 153.7743          7109.829      84.313
 153.8743          6216.737      78.311
 153.9743          5631.644      74.929
 154.0743          5442.000      73.763
